Wavelength data table
Sample name	250.0nm	300.0nm	350.0nm	400.0nm	450.0nm	500.0nm	550.0nm	600.0nm	650.0nm	700.0nm	750.0nm	800.0nm	
'75% Anthracene(EM)			55.36	210.9	22.46	2.090	0.919					

Sample:	'75% Anthracene(EM)
File name:	75% Anthracene.FDS
Run date:	'11:42:12, 03/22/2021
Operator:	Admin
Comment:	'75% Anthracene

Instrument
Model:	F-2700 FL Spectrophotometer
Serial number:	2746-002
ROM Version:	4J14000 06

Instrument parameters
Measurement type:	Wavelength scan
Scan mode:	Emission
Data mode:	Fluorescence
EX WL:	283.0 nm
EM  Start WL:	350.0 nm
EM  End WL:	550.0 nm
Scan speed:	300 nm/min
Delay:	0.0 s
EX Slit:	2.5 nm
EM Slit:	2.5 nm
PMT Voltage:	700 V
Response:	0.08 s
Corrected spectra:	Off

Data points
nm	Data
350.0	55.36
350.5	52.16
351.0	48.40
351.5	45.71
352.0	43.54
352.5	41.41
353.0	38.75
353.5	35.43
354.0	33.75
354.5	32.22
355.0	29.86
355.5	27.28
356.0	26.23
356.5	24.80
357.0	24.58
357.5	25.46
358.0	26.27
358.5	28.51
359.0	29.70
359.5	31.19
360.0	33.23
360.5	33.49
361.0	35.30
361.5	35.89
362.0	36.63
362.5	38.45
363.0	37.54
363.5	37.80
364.0	38.16
364.5	37.34
365.0	37.26
365.5	37.38
366.0	36.83
366.5	36.05
367.0	34.80
367.5	35.03
368.0	34.49
368.5	32.79
369.0	33.64
369.5	32.85
370.0	33.62
370.5	35.05
371.0	37.15
371.5	38.80
372.0	42.55
372.5	46.40
373.0	51.15
373.5	58.50
374.0	64.85
374.5	72.76
375.0	83.36
375.5	96.24
376.0	105.8
376.5	120.3
377.0	133.5
377.5	145.5
378.0	155.5
378.5	157.6
379.0	159.4
379.5	157.3
380.0	155.7
380.5	152.6
381.0	149.7
381.5	147.8
382.0	145.7
382.5	140.3
383.0	135.6
383.5	126.1
384.0	117.5
384.5	108.0
385.0	100.4
385.5	93.74
386.0	87.57
386.5	81.83
387.0	77.53
387.5	75.66
388.0	72.69
388.5	70.82
389.0	69.36
389.5	69.89
390.0	72.78
390.5	74.22
391.0	77.58
391.5	85.15
392.0	92.69
392.5	102.7
393.0	112.7
393.5	125.5
394.0	139.0
394.5	153.6
395.0	170.3
395.5	185.1
396.0	197.2
396.5	208.2
397.0	218.8
397.5	225.8
398.0	227.6
398.5	227.4
399.0	223.0
399.5	217.1
400.0	210.9
400.5	196.5
401.0	189.6
401.5	177.4
402.0	166.1
402.5	154.8
403.0	144.3
403.5	134.5
404.0	126.5
404.5	116.9
405.0	109.8
405.5	103.1
406.0	97.59
406.5	89.97
407.0	84.34
407.5	78.64
408.0	74.26
408.5	68.52
409.0	65.48
409.5	60.84
410.0	58.46
410.5	55.27
411.0	54.21
411.5	52.59
412.0	51.88
412.5	52.61
413.0	52.91
413.5	53.76
414.0	55.32
414.5	58.36
415.0	60.20
415.5	63.93
416.0	66.58
416.5	69.55
417.0	72.48
417.5	75.81
418.0	78.12
418.5	83.06
419.0	85.70
419.5	88.31
420.0	89.20
420.5	91.50
421.0	91.48
421.5	91.29
422.0	90.43
422.5	88.48
423.0	87.36
423.5	84.68
424.0	82.38
424.5	77.95
425.0	74.54
425.5	71.26
426.0	66.80
426.5	63.77
427.0	60.07
427.5	56.44
428.0	53.43
428.5	49.80
429.0	46.31
429.5	43.29
430.0	40.47
430.5	38.27
431.0	36.61
431.5	34.94
432.0	32.49
432.5	29.88
433.0	29.24
433.5	26.90
434.0	26.13
434.5	24.25
435.0	24.14
435.5	23.23
436.0	22.77
436.5	22.03
437.0	21.43
437.5	21.56
438.0	21.42
438.5	20.87
439.0	20.80
439.5	21.32
440.0	21.31
440.5	22.43
441.0	21.90
441.5	22.23
442.0	22.98
442.5	23.55
443.0	23.47
443.5	23.25
444.0	24.23
444.5	24.88
445.0	24.70
445.5	24.67
446.0	24.99
446.5	25.42
447.0	25.16
447.5	24.42
448.0	24.66
448.5	23.75
449.0	23.45
449.5	22.86
450.0	22.46
450.5	21.19
451.0	20.66
451.5	19.77
452.0	19.29
452.5	18.87
453.0	17.86
453.5	16.88
454.0	15.96
454.5	15.37
455.0	14.50
455.5	13.68
456.0	12.95
456.5	12.27
457.0	11.54
457.5	10.79
458.0	10.63
458.5	10.20
459.0	9.814
459.5	9.527
460.0	9.069
460.5	8.756
461.0	8.220
461.5	7.798
462.0	7.262
462.5	7.196
463.0	7.015
463.5	6.577
464.0	6.765
464.5	6.584
465.0	6.438
465.5	5.838
466.0	6.453
466.5	6.554
467.0	5.983
467.5	6.142
468.0	6.006
468.5	5.901
469.0	5.590
469.5	5.934
470.0	5.910
470.5	6.016
471.0	5.724
471.5	5.250
472.0	5.703
472.5	5.778
473.0	5.393
473.5	5.546
474.0	5.706
474.5	5.726
475.0	5.818
475.5	5.619
476.0	5.543
476.5	5.351
477.0	5.214
477.5	5.288
478.0	5.197
478.5	4.944
479.0	4.963
479.5	4.681
480.0	4.809
480.5	4.451
481.0	4.252
481.5	4.562
482.0	4.374
482.5	4.153
483.0	3.940
483.5	3.915
484.0	3.836
484.5	3.344
485.0	3.427
485.5	3.521
486.0	3.617
486.5	3.180
487.0	3.120
487.5	3.032
488.0	2.939
488.5	2.972
489.0	2.665
489.5	2.825
490.0	2.844
490.5	2.722
491.0	2.643
491.5	2.651
492.0	2.433
492.5	2.277
493.0	2.297
493.5	2.254
494.0	2.342
494.5	2.235
495.0	2.289
495.5	2.277
496.0	2.212
496.5	2.204
497.0	1.937
497.5	2.156
498.0	1.906
498.5	2.219
499.0	1.861
499.5	2.141
500.0	2.090
500.5	1.927
501.0	1.871
501.5	1.672
502.0	1.768
502.5	1.935
503.0	1.876
503.5	1.846
504.0	1.861
504.5	1.953
505.0	1.809
505.5	1.787
506.0	1.843
506.5	1.712
507.0	1.689
507.5	1.887
508.0	1.760
508.5	1.612
509.0	1.620
509.5	1.629
510.0	1.685
510.5	1.503
511.0	1.607
511.5	1.407
512.0	1.538
512.5	1.724
513.0	1.391
513.5	1.603
514.0	1.453
514.5	1.608
515.0	1.466
515.5	1.440
516.0	1.412
516.5	1.526
517.0	1.241
517.5	1.344
518.0	1.219
518.5	1.398
519.0	1.196
519.5	1.216
520.0	1.215
520.5	1.324
521.0	1.368
521.5	1.251
522.0	1.293
522.5	1.126
523.0	1.314
523.5	1.375
524.0	1.216
524.5	1.255
525.0	1.329
525.5	1.217
526.0	1.259
526.5	1.236
527.0	1.060
527.5	1.094
528.0	1.168
528.5	1.189
529.0	1.113
529.5	1.027
530.0	1.093
530.5	1.146
531.0	1.177
531.5	1.004
532.0	0.971
532.5	1.021
533.0	1.010
533.5	1.093
534.0	0.972
534.5	0.969
535.0	1.101
535.5	1.004
536.0	1.111
536.5	0.976
537.0	0.932
537.5	0.974
538.0	1.014
538.5	1.060
539.0	1.113
539.5	1.221
540.0	1.081
540.5	1.044
541.0	0.986
541.5	1.152
542.0	1.124
542.5	1.035
543.0	1.182
543.5	0.993
544.0	0.941
544.5	0.982
545.0	1.217
545.5	1.041
546.0	1.198
546.5	1.004
547.0	1.004
547.5	1.022
548.0	1.108
548.5	1.031
549.0	1.093
549.5	1.027
550.0	0.919

